0.000000 0.148109 0.064025 
0.050000 0.520920 -0.304691 
0.100000 0.893034 -0.672497 
0.150000 1.265097 -1.040091 
0.200000 1.637589 -1.407857 
0.250000 2.010615 -1.775996 
0.300000 2.384273 -2.144628 
0.350000 2.758742 -2.513913 
0.400000 3.134408 -2.884238 
0.450000 3.512314 -3.256635 
0.500000 3.895367 -3.633801 
0.550000 4.290793 -4.022490 
0.600000 4.715889 -4.438556 
0.650000 5.208450 -4.916692 
0.700000 5.845367 -5.527375 
0.750000 6.758793 -6.393025 
0.800000 8.052520 -7.619206 
0.850000 9.450292 -8.979323 
0.900000 10.562396 -10.104017 
0.950000 11.452574 -11.020232 
1.000000 12.278791 -11.848592 
1.050000 12.724561 -12.302001 
1.100000 13.105396 -12.714381 
1.150000 13.400266 -13.047581 
1.200000 13.642454 -13.330508 
1.250000 13.867756 -13.599808 
1.300000 14.113617 -13.889339 
1.350000 14.409884 -14.223902 
1.400000 14.761744 -14.598390 
1.450000 15.141712 -14.980190 
1.500000 15.507387 -15.339588 
1.550000 15.835074 -15.670702 
1.600000 16.129184 -15.986349 
1.650000 16.407148 -16.304624 
1.700000 16.686422 -16.639360 
1.750000 16.980794 -16.992659 
1.800000 17.300145 -17.355557 
1.850000 17.647719 -17.718270 
1.900000 18.015501 -18.076661 
1.950000 18.385306 -18.431137 
2.000000 18.741121 -18.785404 
2.050000 19.078889 -19.145157 
2.100000 19.404449 -19.513740 
2.150000 19.726555 -19.888213 
2.200000 20.053205 -20.261564 
2.250000 20.391754 -20.629372 
2.300000 20.748588 -20.993639 
2.350000 21.125901 -21.361136 
2.400000 21.518085 -21.738553 
2.450000 21.913207 -22.128231 
2.500000 22.300516 -22.526875 
2.550000 22.675591 -22.926890 
2.600000 23.040251 -23.320070 
2.650000 23.400450 -23.702111 
2.700000 23.764080 -24.074957 
2.750000 24.139017 -24.446309 
2.800000 24.531212 -24.826494 
2.850000 24.942572 -25.222863 
2.900000 25.368106 -25.634389 
2.950000 25.797057 -26.051459 
3.000000 26.219021 -26.462194 
3.050000 26.629656 -26.859524 
3.100000 27.031141 -27.243596 
3.150000 27.429634 -27.620269 
3.200000 27.832359 -27.998218 
3.250000 28.245823 -28.385214 
3.300000 28.673957 -28.784139 
3.350000 29.117103 -29.191262 
3.400000 29.571480 -29.598453 
3.450000 30.030299 -29.997939 
3.500000 30.486840 -30.386286 
3.550000 30.937716 -30.765340 
3.600000 31.383591 -31.140047 
3.650000 31.827693 -31.514944 
3.700000 32.274012 -31.891526 
3.750000 32.726296 -32.267909 
3.800000 33.187759 -32.640726 
3.850000 33.660676 -33.007613 
3.900000 34.145386 -33.368107 
3.950000 34.639074 -33.722709 
4.000000 35.136611 -34.071894 
4.050000 35.633413 -34.415533 
4.100000 36.127434 -34.752230 
4.150000 36.619992 -35.078788 
4.200000 37.114385 -35.390783 
4.250000 37.614796 -35.684118 
4.300000 38.124183 -35.955744 
4.350000 38.643515 -36.202739 
4.400000 39.172484 -36.420828 
4.450000 39.710146 -36.604173 
4.500000 40.253926 -36.748028 
4.550000 40.797722 -36.853959 
4.600000 41.333851 -36.932177 
4.650000 41.857402 -36.995586 
4.700000 42.368671 -37.052794 
4.750000 42.870379 -37.107742 
4.800000 43.365414 -37.162725 
4.850000 43.856759 -37.220755 
4.900000 44.347317 -37.286347 
4.950000 44.839807 -37.364564 
5.000000 45.336097 -37.458010 
5.050000 45.835933 -37.564549 
5.100000 46.336401 -37.678145 
5.150000 46.834374 -37.791370 
5.200000 47.328092 -37.898121 
5.250000 47.816451 -37.997421 
5.300000 48.299596 -38.094337 
5.350000 48.779613 -38.195412 
5.400000 49.260811 -38.304423 
5.450000 49.746926 -38.422725 
5.500000 50.239574 -38.550913 
5.550000 50.737759 -38.686880 
5.600000 51.238487 -38.824498 
5.650000 51.738290 -38.958181 
5.700000 52.234910 -39.087946 
5.750000 52.728038 -39.218052 
5.800000 53.218957 -39.351826 
5.850000 53.709461 -39.489122 
5.900000 54.201056 -39.627936 
5.950000 54.694381 -39.767405 
6.000000 55.189774 -39.908989 
6.050000 55.687581 -40.054764 
6.100000 56.188501 -40.205183 
6.150000 56.693152 -40.359385 
6.200000 57.200779 -40.516218 
6.250000 57.709873 -40.673964 
6.300000 58.218273 -40.831147 
6.350000 58.724405 -40.988318 
6.400000 59.228647 -41.147712 
6.450000 59.732341 -41.310420 
6.500000 60.237009 -41.474219 
6.550000 60.743767 -41.635431 
6.600000 61.253031 -41.793196 
6.650000 61.765329 -41.951529 
6.700000 62.281495 -42.116918 
6.750000 62.802502 -42.293686 
6.800000 63.328184 -42.480734 
6.850000 63.856461 -42.671428 
6.900000 64.383727 -42.856625 
6.950000 64.906582 -43.030550 
7.000000 65.424368 -43.195488 
7.050000 65.939482 -43.359788 
7.100000 66.456107 -43.531051 
7.150000 66.978817 -43.711944 
7.200000 67.510522 -43.900901 
7.250000 68.051194 -44.094628 
7.300000 68.597292 -44.290204 
7.350000 69.143746 -44.485684 
7.400000 69.686805 -44.679683 
7.450000 70.225568 -44.871447 
7.500000 70.761561 -45.061130 
7.550000 71.297473 -45.249396 
7.600000 71.835855 -45.437208 
7.650000 72.378635 -45.626092 
7.700000 72.926826 -45.818142 
7.750000 73.479997 -46.015744 
7.800000 74.037282 -46.220135 
7.850000 74.597579 -46.429653 
7.900000 75.159456 -46.640650 
7.950000 75.721947 -46.850159 
8.000000 76.284785 -47.056792 
8.050000 76.847819 -47.259906 
8.100000 77.410874 -47.459561 
8.150000 77.973966 -47.657574 
8.200000 78.537730 -47.857833 
8.250000 79.104025 -48.064760 
8.300000 79.675023 -48.280437 
8.350000 80.252248 -48.502521 
8.400000 80.835700 -48.725164 
8.450000 81.423568 -48.942976 
8.500000 82.013176 -49.154959 
8.550000 82.602202 -49.364879 
8.600000 83.189493 -49.578019 
8.650000 83.775362 -49.797116 
8.700000 84.361291 -50.020818 
8.750000 84.949019 -50.245415 
8.800000 85.540508 -50.467535 
8.850000 86.137243 -50.685684 
8.900000 86.739831 -50.900784 
8.950000 87.347571 -51.116683 
9.000000 87.959133 -51.339199 
9.050000 88.573411 -51.572050 
9.100000 89.189056 -51.812927 
9.150000 89.804775 -52.054485 
9.200000 90.419530 -52.289262 
9.250000 91.033471 -52.514289 
9.300000 91.648078 -52.732297 
9.350000 92.265260 -52.949125 
9.400000 92.886811 -53.170172 
9.450000 93.514124 -53.398829 
9.500000 94.148066 -53.636461 
9.550000 94.788559 -53.882168 
9.600000 95.433549 -54.132457 
9.650000 96.080097 -54.381988 
9.700000 96.725690 -54.625419 
9.750000 97.369343 -54.859601 
9.800000 98.011332 -55.085458 
9.850000 98.653134 -55.308163 
9.900000 99.297472 -55.534715 
9.950000 99.947324 -55.770348 
10.000000 100.604788 -56.016318 
10.050000 101.270071 -56.270242 
10.100000 101.942117 -56.527776 
10.150000 102.618504 -56.783845 
10.200000 103.296419 -57.033489 
10.250000 103.972906 -57.273818 
10.300000 104.646446 -57.506520 
10.350000 105.317695 -57.737815 
10.400000 105.989452 -57.974842 
10.450000 106.665283 -58.221518 
10.500000 107.348149 -58.476890 
10.550000 108.039567 -58.736231 
10.600000 108.739268 -58.993953 
10.650000 109.445206 -59.246629 
10.700000 110.153987 -59.494113 
10.750000 110.862135 -59.738773 
10.800000 111.567939 -59.984018 
10.850000 112.272329 -60.232718 
10.900000 112.977845 -60.486179 
10.950000 113.687265 -60.743809 
11.000000 114.402224 -61.002981 
11.050000 115.122996 -61.259672 
11.100000 115.848991 -61.510638 
11.150000 116.579382 -61.756363 
11.200000 117.314081 -62.001813 
11.250000 118.053152 -62.253591 
11.300000 118.796515 -62.515268 
11.350000 119.543221 -62.784414 
11.400000 120.291046 -63.053763 
11.450000 121.037685 -63.315966 
11.500000 121.782821 -63.568320 
11.550000 122.529179 -63.813752 
11.600000 123.280664 -64.058175 
11.650000 124.040659 -64.307194 
11.700000 124.810320 -64.563944 
11.750000 125.588178 -64.828142 
11.800000 126.370827 -65.096678 
11.850000 127.154452 -65.365629 
11.900000 127.936532 -65.631960 
11.950000 128.717241 -65.893862 
12.000000 129.498841 -66.150699 
12.050000 130.284510 -66.403224 
12.100000 131.076077 -66.653361 
12.150000 131.874069 -66.903635 
12.200000 132.677744 -67.156673 
12.250000 133.486343 -67.414530 
12.300000 134.299426 -67.678035 
12.350000 135.116808 -67.946571 
12.400000 135.938607 -68.217884 
12.450000 136.764672 -68.487865 
12.500000 137.594187 -68.751291 
12.550000 138.425845 -69.004494 
12.600000 139.258573 -69.248475 
12.650000 140.092463 -69.489464 
12.700000 140.929082 -69.735615 
12.750000 141.771103 -69.992038 
12.800000 142.620837 -70.258016 
12.850000 143.478878 -70.527959 
12.900000 144.344433 -70.794990 
12.950000 145.216052 -71.054762 
13.000000 146.092237 -71.307121 
13.050000 146.971516 -71.554787 
13.100000 147.851878 -71.800563 
13.150000 148.731504 -72.045694 
13.200000 149.610640 -72.290575 
13.250000 150.492062 -72.536254 
13.300000 151.380226 -72.784308 
13.350000 152.278862 -73.035254 
13.400000 153.189498 -73.287583 
13.450000 154.110847 -73.538517 
13.500000 155.039970 -73.785381 
13.550000 155.973069 -74.026716 
13.600000 156.906668 -74.263011 
13.650000 157.838853 -74.496066 
13.700000 158.769566 -74.726924 
13.750000 159.700627 -74.954964 
13.800000 160.635283 -75.179778 
13.850000 161.578797 -75.403270 
13.900000 162.536807 -75.628766 
13.950000 163.512565 -75.857751 
14.000000 164.504291 -76.087750 
14.050000 165.504973 -76.313292 
14.100000 166.505517 -76.528951 
14.150000 167.499144 -76.732309 
14.200000 168.484960 -76.925161 
14.250000 169.468285 -77.112369 
14.300000 170.458469 -77.299301 
14.350000 171.465512 -77.489391 
14.400000 172.495995 -77.682710 
14.450000 173.549665 -77.875500 
14.500000 174.618853 -78.061230 
14.550000 175.692002 -78.233554 
14.600000 176.759494 -78.389823 
14.650000 177.818810 -78.532389 
14.700000 178.875521 -78.666697 
14.750000 179.940142 -78.798096 
14.800000 181.023264 -78.929280 
14.850000 182.131423 -79.058962 
14.900000 183.264465 -79.181873 
14.950000 184.415684 -79.290777 
15.000000 185.575281 -79.380223 
15.050000 186.735770 -79.449693 
15.100000 187.895918 -79.503000 
15.150000 189.061659 -79.544250 
15.200000 190.243009 -79.574497 
15.250000 191.450250 -79.591466 
15.300000 192.690664 -79.590151 
15.350000 193.965422 -79.562418 
15.400000 195.270375 -79.497049 
15.450000 196.600069 -79.381908 
15.500000 197.952366 -79.207043 
15.550000 199.328215 -78.967635 
15.600000 200.727807 -78.667070 
15.650000 202.148191 -78.317604 
15.700000 203.586072 -77.934338 
15.750000 205.036792 -77.526968 
15.800000 206.492139 -77.097696 
15.850000 207.941845 -76.645719 
15.900000 209.378599 -76.172953 
15.950000 210.800447 -75.686837 
16.000000 212.207466 -75.201038 
16.050000 213.597984 -74.734881 
16.100000 214.969911 -74.306909 
16.150000 216.324348 -73.924212 
16.200000 217.663648 -73.581282 
16.250000 218.988957 -73.268865 
16.300000 220.301257 -72.980560 
16.350000 221.603988 -72.713331 
16.400000 222.902147 -72.464987 
16.450000 224.200500 -72.232204 
16.500000 225.502207 -72.010623 
16.550000 226.808187 -71.796979 
16.600000 228.118432 -71.590763 
16.650000 229.431775 -71.393476 
16.700000 230.746158 -71.206416 
16.750000 232.059735 -71.028649 
16.800000 233.371263 -70.857173 
16.850000 234.681453 -70.689100 
16.900000 235.993082 -70.523248 
16.950000 237.309490 -70.360799 
17.000000 238.633345 -70.204090 
17.050000 239.964911 -70.054617 
17.100000 241.301568 -69.911957 
17.150000 242.639505 -69.774125 
17.200000 243.976485 -69.639138 
17.250000 245.312949 -69.505932 
17.300000 246.651356 -69.374905 
17.350000 247.994869 -69.246947 
17.400000 249.345208 -69.121915 
17.450000 250.701475 -68.999680 
17.500000 252.062576 -68.880901 
17.550000 253.427993 -68.766135 
17.600000 254.797097 -68.655786 
17.650000 256.169555 -68.549587 
17.700000 257.545875 -68.445559 
17.750000 258.925867 -68.341480 
17.800000 260.308160 -68.236638 
17.850000 261.692770 -68.131737 
17.900000 263.081931 -68.028924 
17.950000 264.478315 -67.931231 
18.000000 265.883179 -67.839857 
18.050000 267.295992 -67.752783 
18.100000 268.714401 -67.666840 
18.150000 270.135038 -67.579748 
18.200000 271.555345 -67.490454 
18.250000 272.975199 -67.399654 
18.300000 274.397718 -67.310017 
18.350000 275.827673 -67.224550 
18.400000 277.268568 -67.144674 
18.450000 278.720553 -67.069668 
18.500000 280.181127 -66.997066 
18.550000 281.646289 -66.923654 
18.600000 283.111393 -66.847361 
18.650000 284.573452 -66.768511 
18.700000 286.034065 -66.689093 
18.750000 287.499310 -66.611631 
18.800000 288.975277 -66.538762 
18.850000 290.464334 -66.471931 
18.900000 291.965401 -66.409273 
18.950000 293.475259 -66.346212 
19.000000 294.988759 -66.279511 
19.050000 296.499309 -66.209825 
19.100000 298.003962 -66.139598 
19.150000 299.506539 -66.070171 
19.200000 301.015920 -66.002469 
19.250000 302.539180 -65.938570 
19.300000 304.078121 -65.879965 
19.350000 305.630722 -65.824637 
19.400000 307.192334 -65.768044 
19.450000 308.755038 -65.707409 
19.500000 310.309686 -65.643640 
19.550000 311.853269 -65.579195 
19.600000 313.394239 -65.515589 
19.650000 314.947163 -65.453983 
19.700000 316.521665 -65.396511 
19.750000 318.116713 -65.344764 
19.800000 319.724177 -65.296551 
19.850000 321.334235 -65.245997 
19.900000 322.937311 -65.188345 
19.950000 324.527255 -65.124562 
20.000000 326.106714 -65.060675 
20.050000 327.689486 -65.002399 
20.100000 329.291931 -64.950894 
20.150000 330.921127 -64.903303 
20.200000 332.569937 -64.855902 
20.250000 334.223780 -64.806144 
20.300000 335.870704 -64.752830 
20.350000 337.506030 -64.696271 
20.400000 339.131292 -64.638460 
20.450000 340.752678 -64.582184 
20.500000 342.380196 -64.529299 
20.550000 344.025741 -64.479779 
20.600000 345.696710 -64.432350 
20.650000 347.389542 -64.385599 
20.700000 349.089229 -64.338212 
20.750000 350.777152 -64.288556 
20.800000 352.442592 -64.235211 
20.850000 354.089691 -64.178640 
20.900000 355.735346 -64.122001 
20.950000 357.399243 -64.069596 
21.000000 359.093149 -64.023606 
21.050000 360.814725 -63.981912 
21.100000 362.548867 -63.939394 
21.150000 364.275537 -63.891670 
21.200000 365.979854 -63.838042 
21.250000 367.660008 -63.781489 
21.300000 369.328505 -63.726263 
21.350000 371.005129 -63.675370 
21.400000 372.706511 -63.629288 
21.450000 374.437634 -63.586185 
21.500000 376.190172 -63.542967 
21.550000 377.946672 -63.496722 
21.600000 379.688099 -63.446360 
21.650000 381.402652 -63.393196 
21.700000 383.092098 -63.339828 
21.750000 384.772215 -63.288419 
21.800000 386.465883 -63.239633 
21.850000 388.190874 -63.193037 
21.900000 389.948800 -63.147987 
21.950000 391.723118 -63.103554 
22.000000 393.488318 -63.058115 
22.050000 395.224268 -63.009720 
22.100000 396.927267 -62.957280 
22.150000 398.610186 -62.902168 
22.200000 400.294126 -62.848247 
22.250000 401.998788 -62.799407 
22.300000 403.734117 -62.756426 
22.350000 405.496043 -62.715708 
22.400000 407.266761 -62.671701 
22.450000 409.020739 -62.621450 
22.500000 410.737182 -62.566738 
22.550000 412.412767 -62.512086 
22.600000 414.065804 -62.460965 
22.650000 415.727869 -62.413481 
22.700000 417.425462 -62.367360 
22.750000 419.162681 -62.320765 
22.800000 420.918264 -62.273542 
22.850000 422.658541 -62.226183 
22.900000 424.357472 -62.178197 
22.950000 426.011309 -62.127849 
23.000000 427.637408 -62.074167 
23.050000 429.260811 -62.019103 
23.100000 430.901111 -61.966754 
23.150000 432.566499 -61.920048 
23.200000 434.253342 -61.877824 
23.250000 435.947481 -61.834985 
23.300000 437.625984 -61.786347 
23.350000 439.264760 -61.731096 
23.400000 440.852156 -61.673449 
23.450000 442.398557 -61.619007 
23.500000 443.934169 -61.570250 
23.550000 445.494683 -61.524993 
23.600000 447.099642 -61.478953 
23.650000 448.736183 -61.429625 
23.700000 450.362975 -61.377739 
23.750000 451.935502 -61.325669 
23.800000 453.435624 -61.274765 
23.850000 454.882571 -61.224034 
23.900000 456.316777 -61.171529 
23.950000 457.772491 -61.117211 
24.000000 459.260498 -61.063895 
24.050000 460.766942 -61.014667 
24.100000 462.263866 -60.969316 
24.150000 463.724639 -60.923688 
24.200000 465.135105 -60.872949 
24.250000 466.495111 -60.815789 
24.300000 467.814037 -60.755820 
24.350000 469.107802 -60.698993 
24.400000 470.398333 -60.649023 
24.450000 471.707586 -60.604399 
24.500000 473.042655 -60.559477 
24.550000 474.382651 -60.508956 
24.600000 475.684208 -60.452107 
24.650000 476.906458 -60.393054 
24.700000 478.038286 -60.336886 
24.750000 479.108659 -60.285394 
24.800000 480.171224 -60.236292 
24.850000 481.271227 -60.185866 
24.900000 482.415660 -60.132297 
24.950000 483.566816 -60.077035 
25.000000 484.665159 -60.023051 
25.050000 485.667272 -59.971547 
25.100000 486.572321 -59.920581 
25.150000 487.417479 -59.866978 
25.200000 488.249380 -59.809495 
25.250000 489.095036 -59.750456 
25.300000 489.951870 -59.694260 
25.350000 490.797349 -59.643536 
25.400000 491.604379 -59.596385 
25.450000 492.351351 -59.547547 
25.500000 493.026921 -59.492550 
25.550000 493.630424 -59.431338 
25.600000 494.169319 -59.368597 
25.650000 494.658708 -59.310257 
25.700000 495.123127 -59.258803 
25.750000 495.589077 -59.211486 
25.800000 496.065176 -59.162648 
25.850000 496.525669 -59.107871 
25.900000 496.917283 -59.047164 
25.950000 497.191155 -58.984973 
26.000000 497.336775 -58.926440 
26.050000 497.391328 -58.873118 
26.100000 497.418709 -58.822219 
26.150000 497.472272 -58.769529 
26.200000 497.560605 -58.712830 
26.250000 497.635876 -58.653342 
26.300000 497.619964 -58.594467 
26.350000 497.456492 -58.538701 
26.400000 497.147122 -58.485374 
26.450000 496.744092 -58.431319 
26.500000 496.312585 -58.373737 
26.550000 495.891692 -58.312826 
26.600000 495.474779 -58.251975 
26.650000 495.018498 -58.194942 
26.700000 494.471773 -58.142364 
26.750000 493.804049 -58.091039 
26.800000 493.016461 -58.036454 
26.850000 492.133275 -57.976174 
26.900000 491.180796 -57.911801 
26.950000 490.172533 -57.848198 
27.000000 489.112792 -57.789952 
27.050000 488.005553 -57.737660 
27.100000 486.850626 -57.687403 
27.150000 485.633227 -57.633740 
27.200000 484.323391 -57.573623 
27.250000 482.887747 -57.508575 
27.300000 481.307822 -57.443613 
27.350000 479.597121 -57.383455 
27.400000 477.802526 -57.329011 
27.450000 475.980541 -57.277032 
27.500000 474.160852 -57.222732 
27.550000 472.321086 -57.163215 
27.600000 470.390213 -57.099481 
27.650000 468.287947 -57.035546 
27.700000 465.979950 -56.975151 
27.750000 463.502847 -56.918908 
27.800000 460.938433 -56.864178 
27.850000 458.363421 -56.807302 
27.900000 455.806661 -56.746442 
27.950000 453.229710 -56.683078 
28.000000 450.544708 -56.620725 
28.050000 447.668995 -56.561814 
28.100000 444.579812 -56.505768 
28.150000 441.323723 -56.449697 
28.200000 437.979153 -56.390537 
28.250000 434.607178 -56.327304 
28.300000 431.219760 -56.262273 
28.350000 427.779262 -56.199514 
28.400000 424.226275 -56.141410 
28.450000 420.514639 -56.086598 
28.500000 416.633102 -56.031229 
28.550000 412.605209 -55.971769 
28.600000 408.468209 -55.907277 
28.650000 404.246338 -55.840303 
28.700000 399.942791 -55.775453 
28.750000 395.553150 -55.715917 
28.800000 391.076692 -55.660933 
28.850000 386.510591 -55.606523 
28.900000 381.840954 -55.548369 
28.950000 377.044546 -55.484612 
29.000000 372.097583 -55.417181 
29.050000 366.988832 -55.350603 
29.100000 361.735450 -55.288691 
29.150000 356.385268 -55.231742 
29.200000 350.992897 -55.176649 
29.250000 345.583918 -55.119256 
29.300000 340.131464 -55.057014 
29.350000 334.563070 -54.990686 
29.400000 328.801942 -54.923921 
29.450000 322.819963 -54.860501 
29.500000 316.660757 -54.801465 
29.550000 310.414311 -54.744661 
29.600000 304.166118 -54.686587 
29.650000 297.950711 -54.624770 
29.700000 291.726611 -54.559421 
29.750000 285.393122 -54.493323 
29.800000 278.853264 -54.429715 
29.850000 272.080798 -54.369743 
29.900000 265.134627 -54.311777 
29.950000 258.117493 -54.252793 
30.000000 251.117244 -54.190479 
30.050000 244.161561 -54.124896 
30.100000 237.203272 -54.058622 
30.150000 230.149446 -53.994844 
30.200000 222.921581 -53.934771 
30.250000 215.503117 -53.876816 
30.300000 207.944160 -53.817921 
30.350000 200.327107 -53.755588 
30.400000 192.716998 -53.689521 
30.450000 185.127376 -53.622105 
30.500000 177.522857 -53.556920 
30.550000 169.852131 -53.495984 
30.600000 162.079951 -53.438209 
30.650000 154.199925 -53.380352 
30.700000 146.233617 -53.319242 
30.750000 138.216532 -53.253729 
30.800000 130.173040 -53.185556 
30.850000 122.104596 -53.118403 
30.900000 114.005819 -53.055305 
30.950000 105.883319 -52.996428 
31.000000 97.750518 -52.939127 
31.050000 89.610520 -52.879809 
31.100000 81.449872 -52.816147 
31.150000 73.244705 -52.748600 
31.200000 64.972006 -52.680275 
31.250000 56.627945 -52.614801 
31.300000 48.245111 -52.553706 
31.350000 39.883947 -52.495548 
31.400000 31.598075 -52.437126 
31.450000 23.399343 -52.375496 
31.500000 15.245080 -52.309731 
31.550000 7.058393 -52.241663 
31.600000 -1.224431 -52.174728 
31.650000 -9.608009 -52.111426 
31.700000 -18.028956 -52.051607 
31.750000 -26.390554 -51.992894 
31.800000 -34.614372 -51.932367 
31.850000 -42.682734 -51.868312 
31.900000 -50.654656 -51.801332 
31.950000 -58.637112 -51.734067 
32.000000 -66.715926 -51.669315 
32.050000 -74.896777 -51.607954 
32.100000 -83.104027 -51.548518 
32.150000 -91.228154 -51.488385 
32.200000 -99.183525 -51.425440 
32.250000 -106.951757 -51.359415 
32.300000 -114.594181 -51.292184 
32.350000 -122.217518 -51.226523 
32.400000 -129.905200 -51.164019 
32.450000 -137.664988 -51.103999 
32.500000 -145.430039 -51.044200 
32.550000 -153.102072 -50.982259 
32.600000 -160.605807 -50.917136 
32.650000 -167.928004 -50.849902 
32.700000 -175.120565 -50.783206 
32.750000 -182.263998 -50.719380 
32.800000 -189.416806 -50.658690 
32.850000 -196.585573 -50.599315 
32.900000 -203.726514 -50.538671 
32.950000 -210.772948 -50.474954 
33.000000 -217.676032 -50.408238 
33.050000 -224.432781 -50.340622 
33.100000 -231.078355 -50.274954 
33.150000 -237.652518 -50.212771 
33.200000 -244.175017 -50.153239 
33.250000 -250.643336 -50.093881 
33.300000 -257.039123 -50.032175 
33.350000 -263.339114 -49.967008 
33.400000 -269.533176 -49.899424 
33.450000 -275.633108 -49.832126 
33.500000 -281.655328 -49.767686 
33.550000 -287.596825 -49.706743 
33.600000 -293.435832 -49.647698 
33.650000 -299.152783 -49.587868 
33.700000 -304.746480 -49.525076 
33.750000 -310.236560 -49.458927 
33.800000 -315.656749 -49.391175 
33.850000 -321.037483 -49.324689 
33.900000 -326.380179 -49.261460 
33.950000 -331.646591 -49.201305 
34.000000 -336.779698 -49.142192 
34.050000 -341.739708 -49.081567 
34.100000 -346.530380 -49.017786 
34.150000 -351.202065 -48.951131 
34.200000 -355.827036 -48.883773 
34.250000 -360.456165 -48.818373 
34.300000 -365.084152 -48.756205 
34.350000 -369.650697 -48.696437 
34.400000 -374.075265 -48.636868 
34.450000 -378.300831 -48.575280 
34.500000 -382.326864 -48.510662 
34.550000 -386.216666 -48.443890 
34.600000 -390.065613 -48.377293 
34.650000 -393.941588 -48.313065 
34.700000 -397.842109 -48.251752 
34.750000 -401.700324 -48.192055 
34.800000 -405.426087 -48.131803 
34.850000 -408.952747 -48.069215 
34.900000 -412.272418 -48.003922 
34.950000 -415.445782 -47.937292 
35.000000 -418.571042 -47.871611 
35.050000 -421.722803 -47.808491 
35.100000 -424.907108 -47.747807 
35.150000 -428.064877 -47.687955 
35.200000 -431.110494 -47.626907 
35.250000 -433.977490 -47.563359 
35.300000 -436.652982 -47.497532 
35.350000 -439.186331 -47.431154 
35.400000 -441.661166 -47.366352 
35.450000 -444.144227 -47.304147 
35.500000 -446.648164 -47.243856 
35.550000 -449.130739 -47.183674 
35.600000 -451.523236 -47.121780 
35.650000 -453.769661 -47.057333 
35.700000 -455.857654 -46.991052 
35.750000 -457.823695 -46.924898 
35.800000 -459.727515 -46.860771 
35.850000 -461.615018 -46.799178 
35.900000 -463.496641 -46.739001 
35.950000 -465.347443 -46.678324 
36.000000 -467.123334 -46.615534 
36.050000 -468.788059 -46.550204 
36.100000 -470.336680 -46.483450 
36.150000 -471.796193 -46.417347 
36.200000 -473.201617 -46.353546 
36.250000 -474.571669 -46.292137 
36.300000 -475.904079 -46.231708 
36.350000 -477.183317 -46.170297 
36.400000 -478.389997 -46.106479 
36.450000 -479.513549 -46.040164 
36.500000 -480.563387 -45.972754 
36.550000 -481.563139 -45.906353 
36.600000 -482.528239 -45.842361 
36.650000 -483.451422 -45.780555 
36.700000 -484.311342 -45.719350 
36.750000 -485.090498 -45.656793 
36.800000 -485.786131 -45.591628 
36.850000 -486.413060 -45.524008 
36.900000 -487.000088 -45.455514 
36.950000 -487.574688 -45.388214 
37.000000 -488.140834 -45.323276 
37.050000 -488.671807 -45.260254 
37.100000 -489.127163 -45.197481 
37.150000 -489.478789 -45.133067 
37.200000 -489.728200 -45.065898 
37.250000 -489.907872 -44.996293 
37.300000 -490.066436 -44.925908 
37.350000 -490.241504 -44.856723 
37.400000 -490.434671 -44.789706 
37.450000 -490.608699 -44.724254 
37.500000 -490.709088 -44.658682 
37.550000 -490.694472 -44.591195 
37.600000 -490.560026 -44.520812 
37.650000 -490.343543 -44.447947 
37.700000 -490.107395 -44.374254 
37.750000 -489.902034 -44.301578 
37.800000 -489.734902 -44.230708 
37.850000 -489.567531 -44.160941 
37.900000 -489.338852 -44.090611 
37.950000 -488.996960 -44.018025 
38.000000 -488.525837 -43.942322 
38.050000 -487.957143 -43.863972 
38.100000 -487.356082 -43.784563 
38.150000 -486.782795 -43.705772 
38.200000 -486.255327 -43.628220 
38.250000 -485.742202 -43.551127 
38.300000 -485.183724 -43.472869 
38.350000 -484.523075 -43.391847 
38.400000 -483.733861 -43.307293 
38.450000 -482.835480 -43.219699 
38.500000 -481.885147 -43.130556 
38.550000 -480.944274 -43.041350 
38.600000 -480.040597 -42.952527 
38.650000 -479.154685 -42.863241 
38.700000 -478.235153 -42.771890 
38.750000 -477.226656 -42.676952 
38.800000 -476.096646 -42.577714 
38.850000 -474.851981 -42.474655 
38.900000 -473.535666 -42.369145 
38.950000 -472.201041 -42.262473 
39.000000 -470.879050 -42.154900 
39.050000 -469.562031 -42.045484 
39.100000 -468.211100 -41.932615 
39.150000 -466.777928 -41.814799 
39.200000 -465.228961 -41.691326 
39.250000 -463.561885 -41.562617 
39.300000 -461.805077 -41.429893 
39.350000 -459.998238 -41.294240 
39.400000 -458.167383 -41.155724 
39.450000 -456.310920 -41.013263 
39.500000 -454.401805 -40.865173 
39.550000 -452.401547 -40.709908 
39.600000 -450.279655 -40.546691 
39.650000 -448.028919 -40.375813 
39.700000 -445.666298 -40.198303 
39.750000 -443.217822 -40.015022 
39.800000 -440.699805 -39.825805 
39.850000 -438.109382 -39.629363 
39.900000 -435.425493 -39.423829 
39.950000 -432.617090 -39.207481 
40.000000 -429.657040 -38.979342 
40.050000 -426.535253 -38.739443 
40.100000 -423.260583 -38.488485 
40.150000 -419.848579 -38.226944 
40.200000 -416.305921 -37.954233 
40.250000 -412.623056 -37.668592 
40.300000 -408.774788 -37.367631 
40.350000 -404.725689 -37.049018 
40.400000 -400.441015 -36.710988 
40.450000 -395.898747 -36.352459 
40.500000 -391.092092 -35.972563 
40.550000 -386.017069 -35.569591 
40.600000 -380.652049 -35.139950 
40.650000 -374.939774 -34.677567 
40.700000 -368.775858 -34.173439 
40.750000 -362.005021 -33.614682 
40.800000 -354.425784 -32.983274 
40.850000 -345.807460 -32.256159 
40.900000 -335.940303 -31.410475 
40.950000 -324.765090 -30.438591 
41.000000 -312.577938 -29.370151 
41.050000 -300.082518 -28.276685 
41.100000 -288.024058 -27.233625 
41.150000 -276.770856 -26.277392 
41.200000 -266.328102 -25.406548 
41.250000 -256.566666 -24.605216 
41.300000 -247.362241 -23.857743 
41.350000 -238.623371 -23.152329 
41.400000 -230.276095 -22.480195 
41.450000 -222.250431 -21.834338 
41.500000 -214.480436 -21.209011 
41.550000 -206.911710 -20.599733 
41.600000 -199.509597 -20.003465 
41.650000 -192.263462 -19.418688 
41.700000 -185.181805 -18.845056 
41.750000 -178.277103 -18.282587 
41.800000 -171.548927 -17.730750 
41.850000 -164.978407 -17.188165 
41.900000 -158.535230 -16.652928 
41.950000 -152.190419 -16.123242 
42.000000 -145.927578 -15.597995 
42.050000 -139.749094 -15.077072 
42.100000 -133.672100 -14.561154 
42.150000 -127.714173 -14.050970 
42.200000 -121.878013 -13.546493 
42.250000 -116.147725 -13.046730 
42.300000 -110.497073 -12.550137 
42.350000 -104.903140 -12.055339 
42.400000 -99.356757 -11.561667 
42.450000 -93.867163 -11.069445 
42.500000 -88.452448 -10.579459 
42.550000 -83.124314 -10.092172 
42.600000 -77.874540 -9.606909 
42.650000 -72.679967 -9.122139 
42.700000 -67.514491 -8.636042 
42.750000 -62.364788 -8.147426 
42.800000 -57.233436 -7.655867 
42.850000 -52.129271 -7.161232 
42.900000 -47.049056 -6.662654 
42.950000 -41.976842 -6.158757 
43.000000 -36.912745 -5.650131 
43.050000 -31.924221 -5.144196 
43.100000 -27.194469 -4.660743 
43.150000 -23.027538 -4.233310 
43.200000 -19.740375 -3.897103 
43.250000 -17.427481 -3.662621 
43.300000 -15.869668 -3.506403 
43.350000 -14.747971 -3.394671 
43.400000 -13.836228 -3.303725 
43.450000 -13.018889 -3.221584 
43.500000 -12.246396 -3.143185 
43.550000 -11.500014 -3.066666 
43.600000 -10.773801 -2.991478 
43.650000 -10.066607 -2.917562 
43.700000 -9.378855 -2.845006 
43.750000 -8.711290 -2.773930 
43.800000 -8.064550 -2.704432 
43.850000 -7.439062 -2.636587 
43.900000 -6.835020 -2.570446 
43.950000 -6.252429 -2.506033 
44.000000 -5.691143 -2.443357 
44.050000 -5.150899 -2.382415 
44.100000 -4.631343 -2.323188 
44.150000 -4.132048 -2.265654 
44.200000 -3.652538 -2.209782 
44.250000 -3.192284 -2.155538 
44.300000 -2.750765 -2.102882 
44.350000 -2.327418 -2.051772 
44.400000 -1.921688 -2.002167 
44.450000 -1.532998 -1.954023 
44.500000 -1.160785 -1.907296 
44.550000 -0.804487 -1.861940 
44.600000 -0.463554 -1.817913 
44.650000 -0.137445 -1.775170 
44.700000 0.174380 -1.733667 
44.750000 0.472446 -1.693363 
44.800000 0.757246 -1.654216 
44.850000 1.029275 -1.616186 
44.900000 1.289016 -1.579233 
44.950000 1.536929 -1.543319 
45.000000 1.773467 -1.508406 
45.050000 1.999064 -1.474460 
45.100000 2.214135 -1.441447 
45.150000 2.419082 -1.409330 
45.200000 2.614297 -1.378079 
45.250000 2.800161 -1.347662 
45.300000 2.977032 -1.318049 
45.350000 3.145254 -1.289212 
45.400000 3.305166 -1.261121 
45.450000 3.457086 -1.233749 
45.500000 3.601328 -1.207073 
45.550000 3.738194 -1.181065 
45.600000 3.867965 -1.155703 
45.650000 3.990913 -1.130963 
45.700000 4.107309 -1.106823 
45.750000 4.217407 -1.083263 
45.800000 4.321443 -1.060259 
45.850000 4.419658 -1.037795 
45.900000 4.512279 -1.015850 
45.950000 4.599518 -0.994407 
46.000000 4.681588 -0.973449 
46.050000 4.758691 -0.952958 
46.100000 4.831009 -0.932918 
46.150000 4.898730 -0.913315 
46.200000 4.962029 -0.894133 
46.250000 5.021087 -0.875358 
46.300000 5.076057 -0.856976 
46.350000 5.127094 -0.838975 
46.400000 5.174354 -0.821340 
46.450000 5.217984 -0.804061 
46.500000 5.258120 -0.787125 
46.550000 5.294899 -0.770523 
46.600000 5.328443 -0.754242 
46.650000 5.358882 -0.738272 
46.700000 5.386323 -0.722603 
46.750000 5.410897 -0.707227 
46.800000 5.432705 -0.692132 
46.850000 5.451854 -0.677310 
46.900000 5.468442 -0.662754 
46.950000 5.482572 -0.648455 
47.000000 5.494337 -0.634404 
47.050000 5.503824 -0.620596 
47.100000 5.511128 -0.607021 
47.150000 5.516325 -0.593672 
47.200000 5.519497 -0.580544 
47.250000 5.520720 -0.567629 
47.300000 5.520076 -0.554922 
47.350000 5.517633 -0.542415 
47.400000 5.513458 -0.530104 
47.450000 5.507622 -0.517982 
47.500000 5.500187 -0.506045 
47.550000 5.491214 -0.494286 
47.600000 5.480757 -0.482700 
47.650000 5.468885 -0.471284 
47.700000 5.455647 -0.460032 
47.750000 5.441095 -0.448940 
47.800000 5.425276 -0.438003 
47.850000 5.408256 -0.427217 
47.900000 5.390078 -0.416578 
47.950000 5.370781 -0.406082 
48.000000 5.350409 -0.395725 
48.050000 5.329011 -0.385502 
48.100000 5.306627 -0.375413 
48.150000 5.283297 -0.365452 
48.200000 5.259053 -0.355614 
48.250000 5.233941 -0.345900 
48.300000 5.207992 -0.336304 
48.350000 5.181240 -0.326824 
48.400000 5.153725 -0.317457 
48.450000 5.125479 -0.308200 
48.500000 5.096519 -0.299049 
48.550000 5.066896 -0.290004 
48.600000 5.036618 -0.281061 
48.650000 5.005732 -0.272217 
48.700000 4.974246 -0.263471 
48.750000 4.942206 -0.254819 
48.800000 4.909625 -0.246261 
48.850000 4.876529 -0.237792 
48.900000 4.842941 -0.229412 
48.950000 4.808887 -0.221119 
49.000000 4.774381 -0.212909 
49.050000 4.739459 -0.204782 
49.100000 4.704136 -0.196736 
49.150000 4.668426 -0.188769 
49.200000 4.632347 -0.180878 
49.250000 4.595927 -0.173063 
49.300000 4.559176 -0.165321 
49.350000 4.522113 -0.157652 
49.400000 4.484756 -0.150054 
49.450000 4.447120 -0.142524 
49.500000 4.409222 -0.135062 
49.550000 4.371076 -0.127666 
49.600000 4.332704 -0.120335 
49.650000 4.294108 -0.113067 
49.700000 4.255308 -0.105861 
49.750000 4.216324 -0.098716 
49.800000 4.177164 -0.091631 
49.850000 4.137831 -0.084603 
49.900000 4.098348 -0.077634 
49.950000 4.058717 -0.070721 
50.000000 4.018965 -0.063862 
50.050000 3.979084 -0.057058 
