0.000000 -0.000000 -0.000000 
0.050000 0.373084 -0.368769 
0.100000 0.745410 -0.736634 
0.150000 1.117770 -1.104285 
0.200000 1.490463 -1.472111 
0.250000 1.863665 -1.840309 
0.300000 2.237511 -2.208996 
0.350000 2.612140 -2.578332 
0.400000 2.987899 -2.948702 
0.450000 3.365881 -3.321131 
0.500000 3.748886 -3.698316 
0.550000 4.144255 -4.087015 
0.600000 4.569110 -4.503076 
0.650000 5.061209 -4.981206 
0.700000 5.697230 -5.591896 
0.750000 6.608885 -6.457574 
0.800000 7.900623 -7.683752 
0.850000 9.298958 -9.043699 
0.900000 10.412359 -10.168032 
0.950000 11.302796 -11.083837 
1.000000 12.128040 -11.911661 
1.050000 12.573082 -12.364320 
1.100000 12.954056 -12.776063 
1.150000 13.248836 -13.108658 
1.200000 13.490478 -13.390830 
1.250000 13.714696 -13.659201 
1.300000 13.958729 -13.947570 
1.350000 14.252513 -14.280817 
1.400000 14.601823 -14.654103 
1.450000 14.980202 -15.034888 
1.500000 15.345433 -15.393271 
1.550000 15.673046 -15.723170 
1.600000 15.966979 -16.037323 
1.650000 16.244323 -16.353830 
1.700000 16.522453 -16.686622 
1.750000 16.815196 -17.038045 
1.800000 17.132381 -17.399329 
1.850000 17.477645 -17.760594 
1.900000 17.843608 -18.117481 
1.950000 18.212649 -18.470185 
2.000000 18.568401 -18.822331 
2.050000 18.906372 -19.179674 
2.100000 19.231893 -19.545743 
2.150000 19.553378 -19.917869 
2.200000 19.878953 -20.289136 
2.250000 20.216002 -20.655007 
2.300000 20.570876 -21.017227 
2.350000 20.946228 -21.382338 
2.400000 21.336994 -21.756979 
2.450000 21.731626 -22.143587 
2.500000 22.119088 -22.539103 
2.550000 22.494481 -22.936204 
2.600000 22.859265 -23.326745 
2.650000 23.219126 -23.706271 
2.700000 23.581883 -24.076468 
2.750000 23.955345 -24.444740 
2.800000 24.345789 -24.821246 
2.850000 24.755380 -25.213480 
2.900000 25.179598 -25.620791 
2.950000 25.607979 -26.033929 
3.000000 26.030078 -26.441084 
3.050000 26.441054 -26.834955 
3.100000 26.842708 -27.215356 
3.150000 27.240843 -27.587870 
3.200000 27.642758 -27.961034 
3.250000 28.054938 -28.342656 
3.300000 28.481508 -28.735895 
3.350000 28.923024 -29.137352 
3.400000 29.376078 -29.539060 
3.450000 29.834081 -29.933142 
3.500000 30.290265 -30.315864 
3.550000 30.740984 -30.688789 
3.600000 31.186642 -31.056738 
3.650000 31.630295 -31.424302 
3.700000 32.075840 -31.793179 
3.750000 32.526985 -32.161613 
3.800000 32.986925 -32.526172 
3.850000 33.458108 -32.884321 
3.900000 33.940977 -33.235375 
3.950000 34.432924 -33.579757 
4.000000 34.929187 -33.917970 
4.050000 35.425002 -34.249926 
4.100000 35.918211 -34.574246 
4.150000 36.409559 -34.887647 
4.200000 36.902420 -35.185510 
4.250000 37.400806 -35.463563 
4.300000 37.907781 -35.719044 
4.350000 38.424597 -35.950112 
4.400000 38.951135 -36.154294 
4.450000 39.486813 -36.327728 
4.500000 40.029363 -36.467004 
4.550000 40.573260 -36.573710 
4.600000 41.110387 -36.656643 
4.650000 41.635632 -36.726780 
4.700000 42.148718 -36.791284 
4.750000 42.651913 -36.853325 
4.800000 43.148226 -36.914836 
4.850000 43.640611 -36.978648 
4.900000 44.132028 -37.049212 
4.950000 44.625078 -37.131623 
5.000000 45.121821 -37.228732 
5.050000 45.622126 -37.338786 
5.100000 46.123290 -37.456089 
5.150000 46.622205 -37.573351 
5.200000 47.116855 -37.684356 
5.250000 47.606375 -37.787747 
5.300000 48.090543 -37.888133 
5.350000 48.571522 -37.992060 
5.400000 49.053231 -38.103674 
5.450000 49.539619 -38.224575 
5.500000 50.032460 -38.355223 
5.550000 50.530847 -38.493478 
5.600000 51.031971 -38.633583 
5.650000 51.532498 -38.770256 
5.700000 52.030084 -38.903189 
5.750000 52.524169 -39.036045 
5.800000 53.015832 -39.171951 
5.850000 53.507029 -39.311120 
5.900000 53.999146 -39.452018 
5.950000 54.492994 -39.593899 
6.000000 54.988856 -39.737908 
6.050000 55.487071 -39.885787 
6.100000 55.988470 -40.038007 
6.150000 56.493338 -40.193862 
6.200000 57.001381 -40.352335 
6.250000 57.511022 -40.511881 
6.300000 58.020049 -40.671191 
6.350000 58.527145 -40.830730 
6.400000 59.032207 -40.992284 
6.450000 59.536487 -41.156571 
6.500000 60.041647 -41.321535 
6.550000 60.548703 -41.484032 
6.600000 61.058334 -41.643618 
6.650000 61.571035 -41.804139 
6.700000 62.087640 -41.971540 
6.750000 62.608953 -42.149662 
6.800000 63.134898 -42.337359 
6.850000 63.663590 -42.528466 
6.900000 64.191393 -42.714692 
6.950000 64.715167 -42.890849 
7.000000 65.234032 -43.058799 
7.050000 65.749933 -43.225710 
7.100000 66.267057 -43.398274 
7.150000 66.789796 -43.579244 
7.200000 67.321341 -43.767938 
7.250000 67.861874 -43.962054 
7.300000 68.408251 -44.159042 
7.350000 68.955505 -44.356592 
7.400000 69.499521 -44.552738 
7.450000 70.039096 -44.746283 
7.500000 70.575822 -44.937189 
7.550000 71.112243 -45.126196 
7.600000 71.650895 -45.314557 
7.650000 72.193984 -45.504129 
7.700000 72.742329 -45.697200 
7.750000 73.295761 -45.896055 
7.800000 73.853442 -46.101636 
7.850000 74.414061 -46.312204 
7.900000 74.976400 -46.524300 
7.950000 75.539545 -46.734977 
8.000000 76.102901 -46.942590 
8.050000 76.666367 -47.146331 
8.100000 77.229949 -47.346496 
8.150000 77.793547 -47.545359 
8.200000 78.357911 -47.747023 
8.250000 78.924700 -47.955609 
8.300000 79.496074 -48.172620 
8.350000 80.073567 -48.395301 
8.400000 80.657072 -48.617941 
8.450000 81.245007 -48.835714 
8.500000 81.834987 -49.048124 
8.550000 82.424633 -49.259113 
8.600000 83.012665 -49.473799 
8.650000 83.599443 -49.694580 
8.700000 84.186063 -49.919736 
8.750000 84.774223 -50.145221 
8.800000 85.365806 -50.367518 
8.850000 85.962575 -50.585357 
8.900000 86.565212 -50.800306 
8.950000 87.173161 -51.016821 
9.000000 87.785313 -51.240729 
9.050000 88.400201 -51.475143 
9.100000 89.016516 -51.717176 
9.150000 89.632756 -51.959353 
9.200000 90.247944 -52.194456 
9.250000 90.862370 -52.419860 
9.300000 91.477431 -52.638454 
9.350000 92.095112 -52.856004 
9.400000 92.717071 -53.077753 
9.450000 93.344556 -53.307030 
9.500000 93.978738 -53.545234 
9.550000 94.619430 -53.791530 
9.600000 95.264770 -54.042460 
9.650000 95.911775 -54.292650 
9.700000 96.558063 -54.536708 
9.750000 97.202434 -54.771501 
9.800000 97.845017 -54.998003 
9.850000 98.487362 -55.221349 
9.900000 99.132049 -55.448417 
9.950000 99.782152 -55.684458 
10.000000 100.439719 -55.930921 
10.050000 101.105366 -56.185570 
10.100000 101.777762 -56.443931 
10.150000 102.454660 -56.700571 
10.200000 103.132961 -56.950339 
10.250000 103.809923 -57.190594 
10.300000 104.484032 -57.423507 
10.350000 105.155983 -57.655602 
10.400000 105.828437 -57.893870 
10.450000 106.504859 -58.141781 
10.500000 107.188126 -58.397923 
10.550000 107.879692 -58.657386 
10.600000 108.579379 -58.914794 
10.650000 109.285393 -59.167145 
10.700000 109.994555 -59.414660 
10.750000 110.703409 -59.659861 
10.800000 111.410116 -59.906068 
10.850000 112.115307 -60.155888 
10.900000 112.821529 -60.410339 
10.950000 113.531407 -60.668593 
11.000000 114.246631 -60.927947 
11.050000 114.967641 -61.184461 
11.100000 115.693779 -61.435178 
11.150000 116.424565 -61.680897 
11.200000 117.159751 -61.926748 
11.250000 117.899424 -62.179216 
11.300000 118.643491 -62.441565 
11.350000 119.390824 -62.711148 
11.400000 120.139137 -62.980784 
11.450000 120.886257 -63.243348 
11.500000 121.632176 -63.496200 
11.550000 122.379166 -63.742070 
11.600000 123.131157 -63.986619 
11.650000 123.891504 -64.235428 
11.700000 124.661394 -64.491862 
11.750000 125.439530 -64.755946 
11.800000 126.222729 -65.024779 
11.850000 127.007086 -65.294383 
11.900000 127.790085 -65.561444 
11.950000 128.571633 -65.823831 
12.000000 129.354132 -66.080786 
12.050000 130.140316 -66.333112 
12.100000 130.932344 -66.582883 
12.150000 131.730632 -66.832792 
12.200000 132.534727 -67.085588 
12.250000 133.343986 -67.343410 
12.300000 134.157808 -67.607107 
12.350000 134.976027 -67.875985 
12.400000 135.798687 -68.147628 
12.450000 136.625553 -68.417663 
12.500000 137.455744 -68.680699 
12.550000 138.288010 -68.933148 
12.600000 139.121481 -69.176331 
12.650000 139.956211 -69.416819 
12.700000 140.793791 -69.662836 
12.750000 141.636836 -69.919301 
12.800000 142.487415 -70.185204 
12.850000 143.346232 -70.454781 
12.900000 144.212486 -70.721124 
12.950000 145.084740 -70.979949 
13.000000 145.961801 -71.231235 
13.050000 146.842169 -71.477848 
13.100000 147.723748 -71.722714 
13.150000 148.604853 -71.967106 
13.200000 149.485427 -72.211349 
13.250000 150.368149 -72.456300 
13.300000 151.257306 -72.703341 
13.350000 152.156862 -72.952870 
13.400000 153.068317 -73.203439 
13.450000 153.990723 -73.452462 
13.500000 154.921190 -73.697448 
13.550000 155.855936 -73.937037 
13.600000 156.791475 -74.171672 
13.650000 157.725600 -74.402988 
13.700000 158.658253 -74.631843 
13.750000 159.590974 -74.857580 
13.800000 160.527355 -75.079886 
13.850000 161.472561 -75.300729 
13.900000 162.432224 -75.523361 
13.950000 163.409700 -75.749134 
14.000000 164.403333 -75.975568 
14.050000 165.406311 -76.197324 
14.100000 166.409421 -76.409141 
14.150000 167.405914 -76.608694 
14.200000 168.394802 -76.797699 
14.250000 169.381166 -76.980819 
14.300000 170.374229 -77.163176 
14.350000 171.383967 -77.348075 
14.400000 172.417041 -77.535615 
14.450000 173.473460 -77.722200 
14.500000 174.545962 -77.901440 
14.550000 175.622985 -78.067039 
14.600000 176.694832 -78.216323 
14.650000 177.758842 -78.351573 
14.700000 178.820360 -78.478158 
14.750000 179.889659 -78.601294 
14.800000 180.977382 -78.723522 
14.850000 182.090159 -78.843360 
14.900000 183.228041 -78.955430 
14.950000 184.384694 -79.052485 
15.000000 185.550637 -79.129200 
15.050000 186.718184 -79.185207 
15.100000 187.886112 -79.224307 
15.150000 189.060003 -79.250339 
15.200000 190.249566 -79.263938 
15.250000 191.465319 -79.262478 
15.300000 192.714501 -79.241000 
15.350000 193.998663 -79.192097 
15.400000 195.313553 -79.106232 
15.450000 196.653147 -78.973647 
15.500000 198.014207 -78.786846 
15.550000 199.397144 -78.542524 
15.600000 200.801628 -78.243823 
15.650000 202.225333 -77.901116 
15.700000 203.665188 -77.527277 
15.750000 205.116937 -77.130755 
15.800000 206.572535 -76.713707 
15.850000 208.021550 -76.275997 
15.900000 209.456187 -75.820155 
15.950000 210.874115 -75.353455 
16.000000 212.275979 -74.888426 
16.050000 213.660902 -74.442581 
16.100000 215.027567 -74.032736 
16.150000 216.377569 -73.665184 
16.200000 217.713578 -73.334667 
16.250000 219.036446 -73.032634 
16.300000 220.347247 -72.753293 
16.350000 221.648861 -72.493972 
16.400000 222.946014 -72.252653 
16.450000 224.243514 -72.026137 
16.500000 225.544193 -71.810212 
16.550000 226.849290 -71.601773 
16.600000 228.158771 -71.400433 
16.650000 229.471579 -71.207788 
16.700000 230.785898 -71.025196 
16.750000 232.099469 -70.851741 
16.800000 233.410992 -70.684404 
16.850000 234.721132 -70.520264 
16.900000 236.032542 -70.358141 
16.950000 237.348689 -70.199213 
17.000000 238.672210 -70.045795 
17.050000 240.003566 -69.899461 
17.100000 241.340191 -69.759872 
17.150000 242.678327 -69.625132 
17.200000 244.015676 -69.493260 
17.250000 245.352435 -69.363090 
17.300000 246.690919 -69.234909 
17.350000 248.034370 -69.109582 
17.400000 249.384463 -68.987009 
17.450000 250.740688 -68.867127 
17.500000 252.101846 -68.750727 
17.550000 253.467501 -68.638438 
17.600000 254.836984 -68.530569 
17.650000 256.209758 -68.426703 
17.700000 257.586259 -68.324884 
17.750000 258.966239 -68.222915 
17.800000 260.348497 -68.120065 
17.850000 261.733116 -68.017097 
17.900000 263.122412 -67.916259 
17.950000 264.518952 -67.820549 
18.000000 265.924043 -67.731057 
18.050000 267.337104 -67.645786 
18.100000 268.755663 -67.561674 
18.150000 270.176425 -67.476419 
18.200000 271.596818 -67.388856 
18.250000 273.016804 -67.299653 
18.300000 274.439357 -67.211568 
18.350000 275.869293 -67.127674 
18.400000 277.310206 -67.049327 
18.450000 278.762431 -66.975801 
18.500000 280.223270 -66.904738 
18.550000 281.688500 -66.832957 
18.600000 283.153557 -66.758189 
18.650000 284.615596 -66.680584 
18.700000 286.076295 -66.602309 
18.750000 287.541515 -66.526175 
18.800000 289.017337 -66.454775 
18.850000 290.506438 -66.389267 
18.900000 292.007645 -66.327751 
18.950000 293.517551 -66.265912 
19.000000 295.030596 -66.200581 
19.050000 296.540973 -66.132126 
19.100000 298.045751 -66.062843 
19.150000 299.548614 -65.994372 
19.200000 301.057771 -65.927928 
19.250000 302.580475 -65.865371 
19.300000 304.119149 -65.807795 
19.350000 305.671734 -65.753224 
19.400000 307.233152 -65.697570 
19.450000 308.795384 -65.638197 
19.500000 310.349666 -65.575643 
19.550000 311.893320 -65.512027 
19.600000 313.434348 -65.449068 
19.650000 314.986810 -65.388359 
19.700000 316.560406 -65.332066 
19.750000 318.154714 -65.281376 
19.800000 319.761978 -65.233880 
19.850000 321.371811 -65.183963 
19.900000 322.974356 -65.127217 
19.950000 324.563498 -65.064527 
20.000000 326.142546 -65.001542 
20.050000 327.725036 -64.943845 
20.100000 329.327017 -64.892901 
20.150000 330.955108 -64.846167 
20.200000 332.602595 -64.799816 
20.250000 334.255501 -64.750913 
20.300000 335.901958 -64.698131 
20.350000 337.536815 -64.642042 
20.400000 339.161372 -64.584959 
20.450000 340.781735 -64.529633 
20.500000 342.408242 -64.477601 
20.550000 344.052713 -64.428644 
20.600000 345.722383 -64.381634 
20.650000 347.413662 -64.335445 
20.700000 349.111863 -64.288842 
20.750000 350.798762 -64.240004 
20.800000 352.463451 -64.187297 
20.850000 354.109711 -64.131185 
20.900000 355.754005 -64.075009 
20.950000 357.416081 -64.023210 
21.000000 359.108027 -63.977930 
21.050000 360.827714 -63.936891 
21.100000 362.560054 -63.894880 
21.150000 364.285038 -63.847569 
21.200000 365.987849 -63.794398 
21.250000 367.666659 -63.738426 
21.300000 369.333624 -63.683864 
21.350000 371.008255 -63.633569 
21.400000 372.707029 -63.587934 
21.450000 374.435449 -63.545171 
21.500000 376.185530 -63.502332 
21.550000 377.939808 -63.456614 
21.600000 379.679107 -63.406878 
21.650000 381.391395 -63.354278 
21.700000 383.078559 -63.301309 
21.750000 384.756418 -63.250179 
21.800000 386.447592 -63.201732 
21.850000 388.169494 -63.155653 
21.900000 389.923583 -63.111218 
21.950000 391.694053 -63.067280 
22.000000 393.456091 -63.022118 
22.050000 395.189758 -62.973890 
22.100000 396.890719 -62.921767 
22.150000 398.570707 -62.867234 
22.200000 400.250536 -62.813973 
22.250000 401.950500 -62.765594 
22.300000 403.681569 -62.722762 
22.350000 405.439914 -62.682086 
22.400000 407.207146 -62.638345 
22.450000 408.957134 -62.588685 
22.500000 410.669063 -62.534655 
22.550000 412.340275 -62.480436 
22.600000 413.989580 -62.429396 
22.650000 415.648077 -62.381888 
22.700000 417.341099 -62.336016 
22.750000 419.072261 -62.290020 
22.800000 420.821120 -62.243460 
22.850000 422.555521 -62.196467 
22.900000 424.250359 -62.148467 
22.950000 425.901027 -62.098031 
23.000000 427.523034 -62.044593 
23.050000 429.140228 -61.990169 
23.100000 430.772733 -61.938522 
23.150000 432.430455 -61.892167 
23.200000 434.111203 -61.849844 
23.250000 435.800464 -61.806796 
23.300000 437.473761 -61.758311 
23.350000 439.105880 -61.703685 
23.400000 440.685450 -61.646792 
23.450000 442.224245 -61.592766 
23.500000 443.753423 -61.543920 
23.550000 445.308043 -61.498379 
23.600000 446.905969 -61.452368 
23.650000 448.533462 -61.403578 
23.700000 450.150182 -61.352447 
23.750000 451.713657 -61.300848 
23.800000 453.207033 -61.249897 
23.850000 454.648641 -61.198845 
23.900000 456.076355 -61.146262 
23.950000 457.522533 -61.092396 
24.000000 458.998412 -61.039838 
24.050000 460.492654 -60.991162 
24.100000 461.979764 -60.945822 
24.150000 463.433383 -60.899819 
24.200000 464.837243 -60.848838 
24.250000 466.188513 -60.791975 
24.300000 467.495680 -60.732756 
24.350000 468.776331 -60.676629 
24.400000 470.054802 -60.626842 
24.450000 471.354193 -60.581872 
24.500000 472.680285 -60.536532 
24.550000 474.009926 -60.486048 
24.600000 475.298765 -60.429805 
24.650000 476.507030 -60.371539 
24.700000 477.625977 -60.315789 
24.750000 478.685791 -60.264122 
24.800000 479.738874 -60.214548 
24.850000 480.827783 -60.163905 
24.900000 481.957697 -60.110695 
24.950000 483.091806 -60.056182 
25.000000 484.173695 -60.002802 
25.050000 485.162772 -59.951352 
25.100000 486.057938 -59.899968 
25.150000 486.893413 -59.845955 
25.200000 487.712323 -59.788548 
25.250000 488.540535 -59.730129 
25.300000 489.377683 -59.674671 
25.350000 490.205095 -59.624277 
25.400000 490.997960 -59.576870 
25.450000 491.733707 -59.527503 
25.500000 492.397510 -59.472249 
25.550000 492.985699 -59.411380 
25.600000 493.505445 -59.349392 
25.650000 493.974748 -59.291675 
25.700000 494.421295 -59.240292 
25.750000 494.872390 -59.192529 
25.800000 495.334772 -59.143174 
25.850000 495.779674 -59.088322 
25.900000 496.152349 -59.028132 
25.950000 496.405419 -58.966696 
26.000000 496.531430 -58.908617 
26.050000 496.569551 -58.855161 
26.100000 496.582711 -58.803731 
26.150000 496.620995 -58.750623 
26.200000 496.690168 -58.694027 
26.250000 496.742529 -58.635153 
26.300000 496.703302 -58.576959 
26.350000 496.520030 -58.521450 
26.400000 496.195423 -58.467831 
26.450000 495.779228 -58.413232 
26.500000 495.332344 -58.355353 
26.550000 494.890780 -58.294703 
26.600000 494.448781 -58.234518 
26.650000 493.967270 -58.178066 
26.700000 493.399690 -58.125579 
26.750000 492.716518 -58.073844 
26.800000 491.915999 -58.018721 
26.850000 491.017646 -57.958252 
26.900000 490.044692 -57.894248 
26.950000 489.011733 -57.831330 
27.000000 487.927360 -57.773584 
27.050000 486.799486 -57.721266 
27.100000 485.628668 -57.670530 
27.150000 484.397493 -57.616341 
27.200000 483.071942 -57.556100 
27.250000 481.616292 -57.491475 
27.300000 480.013448 -57.427190 
27.350000 478.280843 -57.367470 
27.400000 476.468465 -57.312936 
27.450000 474.632436 -57.260455 
27.500000 472.799350 -57.205651 
27.550000 470.943410 -57.146045 
27.600000 468.992485 -57.082742 
27.650000 466.868836 -57.019450 
27.700000 464.542339 -56.959439 
27.750000 462.051886 -56.903074 
27.800000 459.477914 -56.847849 
27.850000 456.893192 -56.790497 
27.900000 454.322550 -56.729569 
27.950000 451.726871 -56.666626 
28.000000 449.021924 -56.604875 
28.050000 446.130402 -56.546308 
28.100000 443.032301 -56.490121 
28.150000 439.772375 -56.433566 
28.200000 436.424366 -56.373949 
28.250000 433.044508 -56.310654 
28.300000 429.643360 -56.246028 
28.350000 426.186853 -56.183844 
28.400000 422.621437 -56.126062 
28.450000 418.904766 -56.071110 
28.500000 415.024775 -56.015265 
28.550000 411.000487 -55.955345 
28.600000 406.863773 -55.890768 
28.650000 402.636573 -55.824166 
28.700000 398.324694 -55.759877 
28.750000 393.929181 -55.700677 
28.800000 389.453300 -55.645583 
28.850000 384.894337 -55.590716 
28.900000 380.235017 -55.532084 
28.950000 375.447292 -55.468188 
29.000000 370.504640 -55.401068 
29.050000 365.397519 -55.335032 
29.100000 360.147888 -55.273490 
29.150000 354.807261 -55.216489 
29.200000 349.430323 -55.160981 
29.250000 344.039627 -55.103097 
29.300000 338.604175 -55.040644 
29.350000 333.049201 -54.974545 
29.400000 327.299590 -54.908280 
29.450000 321.331716 -54.845263 
29.500000 315.192784 -54.786252 
29.550000 308.972722 -54.729097 
29.600000 302.753747 -54.670535 
29.650000 296.565696 -54.608438 
29.700000 290.364538 -54.543219 
29.750000 284.051315 -54.477563 
29.800000 277.534311 -54.414375 
29.850000 270.791687 -54.354505 
29.900000 263.882837 -54.296267 
29.950000 256.907007 -54.236820 
30.000000 249.946747 -54.174166 
30.050000 243.025731 -54.108607 
30.100000 236.097175 -54.042702 
30.150000 229.073434 -53.979353 
30.200000 221.882013 -53.919458 
30.250000 214.508673 -53.861315 
30.300000 207.001050 -53.801993 
30.350000 199.435914 -53.739273 
30.400000 191.872924 -53.673122 
30.450000 184.323965 -53.605983 
30.500000 176.757279 -53.541224 
30.550000 169.127878 -53.480545 
30.600000 161.404827 -53.422680 
30.650000 153.581411 -53.364450 
30.700000 145.674878 -53.302918 
30.750000 137.714779 -53.237211 
30.800000 129.721845 -53.169203 
30.850000 121.698977 -53.102444 
30.900000 113.646151 -53.039669 
30.950000 105.574867 -52.980819 
31.000000 97.499973 -52.923229 
31.050000 89.422156 -52.863482 
31.100000 81.323024 -52.799524 
31.150000 73.174281 -52.732005 
31.200000 64.952242 -52.664001 
31.250000 56.656934 -52.598894 
31.300000 48.325895 -52.537944 
31.350000 40.021869 -52.479608 
31.400000 31.797099 -52.420796 
31.450000 23.659489 -52.358796 
31.500000 15.562143 -52.292915 
31.550000 7.426520 -52.225052 
31.600000 -0.808597 -52.158478 
31.650000 -9.143050 -52.095420 
31.700000 -17.510329 -52.035557 
31.750000 -25.814235 -51.976535 
31.800000 -33.979859 -51.915613 
31.850000 -41.994047 -51.851317 
31.900000 -49.918497 -51.784397 
31.950000 -57.858581 -51.717432 
32.000000 -65.895331 -51.652982 
32.050000 -74.030106 -51.591708 
32.100000 -82.186464 -51.532078 
32.150000 -90.257699 -51.471576 
32.200000 -98.163005 -51.408306 
32.250000 -105.888250 -51.342192 
32.300000 -113.495244 -51.275152 
32.350000 -121.086574 -51.209802 
32.400000 -128.739881 -51.147489 
32.450000 -136.459889 -51.087404 
32.500000 -144.180938 -51.027311 
32.550000 -151.809116 -50.965010 
32.600000 -159.274486 -50.899670 
32.650000 -166.566877 -50.832488 
32.700000 -173.736561 -50.766053 
32.750000 -180.858459 -50.702484 
32.800000 -187.985705 -50.641858 
32.850000 -195.123246 -50.582298 
32.900000 -202.229889 -50.521315 
32.950000 -209.244119 -50.457292 
33.000000 -216.122039 -50.390479 
33.050000 -222.862145 -50.323017 
33.100000 -229.496248 -50.257619 
33.150000 -236.058325 -50.195610 
33.200000 -242.564063 -50.136024 
33.250000 -249.010687 -50.076401 
33.300000 -255.383177 -50.014354 
33.350000 -261.663439 -49.948958 
33.400000 -267.845262 -49.881385 
33.450000 -273.940162 -49.814299 
33.500000 -279.960218 -49.750097 
33.550000 -285.897432 -49.689232 
33.600000 -291.727587 -49.630037 
33.650000 -297.432071 -49.569899 
33.700000 -303.013359 -49.506797 
33.750000 -308.495609 -49.440504 
33.800000 -313.914895 -49.372844 
33.850000 -319.299863 -49.306587 
33.900000 -324.647368 -49.243536 
33.950000 -329.915398 -49.183369 
34.000000 -335.046104 -49.124039 
34.050000 -340.001701 -49.063092 
34.100000 -344.789682 -48.999050 
34.150000 -349.463822 -48.932329 
34.200000 -354.097010 -48.865112 
34.250000 -358.737129 -48.799924 
34.300000 -363.374677 -48.737865 
34.350000 -367.946976 -48.678006 
34.400000 -372.374001 -48.618176 
34.450000 -376.601562 -48.556275 
34.500000 -380.632776 -48.491449 
34.550000 -384.533158 -48.424675 
34.600000 -388.397030 -48.358240 
34.650000 -392.288501 -48.294185 
34.700000 -396.201525 -48.232909 
34.750000 -400.068100 -48.173059 
34.800000 -403.799690 -48.112517 
34.850000 -407.333031 -48.049637 
34.900000 -410.663655 -47.984187 
34.950000 -413.853359 -47.917597 
35.000000 -416.997971 -47.852074 
35.050000 -420.167887 -47.789075 
35.100000 -423.366241 -47.728359 
35.150000 -426.533817 -47.668300 
35.200000 -429.587384 -47.606947 
35.250000 -432.464179 -47.543129 
35.300000 -435.154367 -47.477185 
35.350000 -437.707524 -47.410865 
35.400000 -440.204096 -47.346196 
35.450000 -442.706512 -47.284054 
35.500000 -445.225046 -47.223661 
35.550000 -447.718027 -47.163227 
35.600000 -450.119613 -47.101014 
35.650000 -452.377603 -47.036313 
35.700000 -454.482258 -46.969937 
35.750000 -456.469589 -46.903837 
35.800000 -458.395771 -46.839800 
35.850000 -460.302637 -46.778200 
35.900000 -462.198678 -46.717855 
35.950000 -464.059876 -46.656876 
36.000000 -465.845221 -46.593747 
36.050000 -467.522167 -46.528164 
36.100000 -469.087951 -46.461310 
36.150000 -470.568607 -46.395231 
36.200000 -471.995570 -46.331455 
36.250000 -473.383934 -46.269958 
36.300000 -474.729908 -46.209285 
36.350000 -476.019015 -46.147512 
36.400000 -477.234884 -46.083317 
36.450000 -478.370389 -46.016720 
36.500000 -479.436690 -45.949173 
36.550000 -480.456147 -45.882731 
36.600000 -481.440782 -45.818671 
36.650000 -482.380278 -45.756673 
36.700000 -483.252174 -45.695123 
36.750000 -484.040086 -45.632119 
36.800000 -484.744003 -45.566504 
36.850000 -485.381763 -45.498531 
36.900000 -485.983532 -45.429815 
36.950000 -486.575312 -45.362359 
37.000000 -487.157983 -45.297219 
37.050000 -487.702307 -45.233860 
37.100000 -488.167154 -45.170599 
37.150000 -488.525590 -45.105603 
37.200000 -488.781543 -45.037854 
37.250000 -488.970031 -44.967758 
37.300000 -489.140587 -44.896994 
37.350000 -489.329247 -44.827470 
37.400000 -489.534894 -44.760043 
37.450000 -489.718243 -44.694036 
37.500000 -489.824487 -44.627758 
37.550000 -489.813487 -44.559469 
37.600000 -489.682613 -44.488280 
37.650000 -489.471682 -44.414685 
37.700000 -489.243494 -44.340346 
37.750000 -489.046897 -44.267033 
37.800000 -488.886885 -44.195432 
37.850000 -488.723386 -44.124773 
37.900000 -488.495313 -44.053388 
37.950000 -488.152066 -43.979643 
38.000000 -487.679639 -43.902758 
38.050000 -487.111318 -43.823276 
38.100000 -486.512350 -43.742782 
38.150000 -485.941135 -43.662879 
38.200000 -485.413506 -43.584087 
38.250000 -484.896721 -43.505571 
38.300000 -484.331251 -43.425702 
38.350000 -483.661627 -43.342938 
38.400000 -482.863373 -43.256588 
38.450000 -481.957241 -43.167205 
38.500000 -481.000197 -43.076270 
38.550000 -480.051791 -42.985195 
38.600000 -479.137653 -42.894333 
38.650000 -478.237272 -42.802777 
38.700000 -477.299560 -42.708929 
38.750000 -476.270533 -42.611314 
38.800000 -475.119464 -42.509291 
38.850000 -473.854388 -42.403390 
38.900000 -472.517942 -42.294968 
38.950000 -471.161520 -42.185233 
39.000000 -469.813964 -42.074358 
39.050000 -468.466570 -41.961343 
39.100000 -467.080771 -41.844577 
39.150000 -465.609574 -41.722606 
39.200000 -464.021122 -41.594788 
39.250000 -462.314217 -41.461582 
39.300000 -460.516795 -41.324189 
39.350000 -458.666631 -41.183617 
39.400000 -456.787562 -41.039836 
39.450000 -454.876889 -40.891703 
39.500000 -452.907780 -40.737528 
39.550000 -450.842986 -40.575803 
39.600000 -448.653617 -40.405805 
39.650000 -446.333459 -40.227855 
39.700000 -443.898966 -40.042951 
39.750000 -441.374207 -39.851854 
39.800000 -438.773206 -39.654293 
39.850000 -436.091776 -39.448905 
39.900000 -433.308875 -39.233810 
39.950000 -430.394534 -39.007315 
40.000000 -427.322969 -38.768479 
40.050000 -424.084706 -38.517323 
40.100000 -420.687609 -38.254458 
40.150000 -417.144687 -37.980196 
40.200000 -413.459779 -37.693782 
40.250000 -409.621566 -37.393344 
40.300000 -405.604408 -37.076446 
40.350000 -401.373074 -36.740709 
40.400000 -396.892461 -36.384236 
40.450000 -392.138534 -36.005683 
40.500000 -387.100623 -35.603806 
40.550000 -381.770142 -35.176542 
40.600000 -376.122195 -34.720103 
40.650000 -370.098871 -34.228450 
40.700000 -363.598515 -33.692889 
40.750000 -356.475822 -33.101586 
40.800000 -348.557174 -32.439448 
40.850000 -339.669393 -31.689438 
40.900000 -329.685831 -30.837192 
40.950000 -318.617346 -29.881790 
41.000000 -306.757533 -28.851547 
41.050000 -294.715449 -27.807075 
41.100000 -283.114393 -26.810788 
41.150000 -272.252304 -25.892333 
41.200000 -262.123035 -25.049901 
41.250000 -252.612229 -24.269771 
41.300000 -243.613132 -23.538496 
41.350000 -235.047150 -22.845857 
41.400000 -226.848480 -22.184091 
41.450000 -218.952511 -21.546842 
41.500000 -211.297343 -20.928806 
41.550000 -203.831991 -20.325827 
41.600000 -196.524782 -19.735121 
41.650000 -189.367476 -19.155358 
41.700000 -182.369891 -18.586313 
41.750000 -175.544672 -18.028048 
41.800000 -168.890939 -17.480042 
41.850000 -162.389570 -16.940930 
41.900000 -156.010619 -16.408841 
41.950000 -149.726027 -15.882043 
42.000000 -143.520734 -15.359504 
42.050000 -137.398317 -14.841184 
42.100000 -131.376500 -14.327808 
42.150000 -125.472486 -13.820099 
42.200000 -119.688261 -13.318008 
42.250000 -114.007469 -12.820525 
42.300000 -108.404126 -12.326126 
42.350000 -102.856232 -11.833494 
42.400000 -97.356078 -11.342059 
42.450000 -91.914150 -10.852244 
42.500000 -86.549147 -10.364907 
42.550000 -81.272372 -9.880521 
42.600000 -76.075340 -9.398424 
42.650000 -70.935369 -8.917154 
42.700000 -65.828661 -8.435119 
42.750000 -60.745758 -7.951519 
42.800000 -55.694126 -7.466481 
42.850000 -50.687572 -6.980504 
42.900000 -45.729060 -6.493559 
42.950000 -40.812452 -6.005543 
43.000000 -35.950972 -5.518700 
43.050000 -31.219081 -5.041406 
43.100000 -26.783379 -4.591620 
43.150000 -22.898713 -4.197040 
43.200000 -19.821829 -3.885539 
43.250000 -17.619917 -3.664204 
43.300000 -16.094677 -3.511968 
43.350000 -14.964604 -3.399429 
43.400000 -14.029823 -3.305944 
43.450000 -13.187179 -3.220976 
43.500000 -12.391581 -3.139982 
43.550000 -11.625411 -3.061230 
43.600000 -10.882588 -2.984164 
43.650000 -10.161511 -2.908669 
43.700000 -9.462107 -2.834784 
43.750000 -8.784691 -2.762575 
43.800000 -8.129560 -2.692107 
43.850000 -7.496854 -2.623422 
43.900000 -6.886549 -2.556546 
43.950000 -6.298478 -2.491484 
44.000000 -5.732363 -2.428232 
44.050000 -5.187829 -2.366772 
44.100000 -4.664430 -2.307078 
44.150000 -4.161668 -2.249118 
44.200000 -3.678994 -2.192856 
44.250000 -3.215863 -2.138251 
44.300000 -2.771688 -2.085260 
44.350000 -2.345890 -2.033839 
44.400000 -1.937870 -1.983941 
44.450000 -1.547042 -1.935521 
44.500000 -1.172818 -1.888533 
44.550000 -0.814626 -1.842930 
44.600000 -0.471904 -1.798666 
44.650000 -0.144086 -1.755697 
44.700000 0.169372 -1.713978 
44.750000 0.468986 -1.673466 
44.800000 0.755273 -1.634118 
44.850000 1.028734 -1.595895 
44.900000 1.289849 -1.558755 
44.950000 1.539093 -1.522661 
45.000000 1.776915 -1.487574 
45.050000 2.003751 -1.453459 
45.100000 2.220020 -1.420280 
45.150000 2.426130 -1.388004 
45.200000 2.622477 -1.356597 
45.250000 2.809438 -1.326029 
45.300000 2.987371 -1.296269 
45.350000 3.156627 -1.267288 
45.400000 3.317543 -1.239057 
45.450000 3.470442 -1.211550 
45.500000 3.615641 -1.184740 
45.550000 3.753435 -1.158604 
45.600000 3.884105 -1.133115 
45.650000 4.007936 -1.108252 
45.700000 4.125192 -1.083992 
45.750000 4.236121 -1.060314 
45.800000 4.340972 -1.037196 
45.850000 4.439985 -1.014620 
45.900000 4.533379 -0.992566 
45.950000 4.621377 -0.971017 
46.000000 4.704190 -0.949955 
46.050000 4.782009 -0.929362 
46.100000 4.855028 -0.909224 
46.150000 4.923432 -0.889524 
46.200000 4.987409 -0.870248 
46.250000 5.047117 -0.851381 
46.300000 5.102720 -0.832909 
46.350000 5.154381 -0.814819 
46.400000 5.202252 -0.797099 
46.450000 5.246476 -0.779736 
46.500000 5.287195 -0.762720 
46.550000 5.324537 -0.746037 
46.600000 5.358637 -0.729678 
46.650000 5.389608 -0.713632 
46.700000 5.417585 -0.697889 
46.750000 5.442673 -0.682439 
46.800000 5.464986 -0.667273 
46.850000 5.484624 -0.652383 
46.900000 5.501696 -0.637759 
46.950000 5.516298 -0.623394 
47.000000 5.528521 -0.609279 
47.050000 5.538464 -0.595407 
47.100000 5.546206 -0.581770 
47.150000 5.551833 -0.568362 
47.200000 5.555423 -0.555175 
47.250000 5.557063 -0.542203 
47.300000 5.556824 -0.529439 
47.350000 5.554775 -0.516877 
47.400000 5.550989 -0.504513 
47.450000 5.545532 -0.492339 
47.500000 5.538467 -0.480350 
47.550000 5.529851 -0.468540 
47.600000 5.519755 -0.456906 
47.650000 5.508230 -0.445442 
47.700000 5.495331 -0.434144 
47.750000 5.481107 -0.423006 
47.800000 5.465625 -0.412025 
47.850000 5.448931 -0.401195 
47.900000 5.431066 -0.390514 
47.950000 5.412076 -0.379976 
48.000000 5.392010 -0.369577 
48.050000 5.370911 -0.359316 
48.100000 5.348821 -0.349188 
48.150000 5.325772 -0.339187 
48.200000 5.301814 -0.329314 
48.250000 5.276978 -0.319563 
48.300000 5.251298 -0.309931 
48.350000 5.224817 -0.300417 
48.400000 5.197569 -0.291016 
48.450000 5.169571 -0.281725 
48.500000 5.140875 -0.272542 
48.550000 5.111491 -0.263465 
48.600000 5.081467 -0.254491 
48.650000 5.050811 -0.245617 
48.700000 5.019571 -0.236840 
48.750000 4.987762 -0.228160 
48.800000 4.955408 -0.219573 
48.850000 4.922536 -0.211077 
48.900000 4.889171 -0.202670 
48.950000 4.855329 -0.194349 
49.000000 4.821046 -0.186113 
49.050000 4.786338 -0.177961 
49.100000 4.751220 -0.169891 
49.150000 4.715712 -0.161898 
49.200000 4.679840 -0.153983 
49.250000 4.643616 -0.146145 
49.300000 4.607060 -0.138380 
49.350000 4.570190 -0.130689 
49.400000 4.533022 -0.123068 
49.450000 4.495575 -0.115517 
49.500000 4.457860 -0.108034 
49.550000 4.419903 -0.100618 
49.600000 4.381705 -0.093266 
49.650000 4.343288 -0.085978 
49.700000 4.304670 -0.078754 
49.750000 4.265862 -0.071589 
49.800000 4.226866 -0.064485 
49.850000 4.187705 -0.057441 
49.900000 4.148383 -0.050453 
49.950000 4.108926 -0.043522 
50.000000 4.069327 -0.036647 
50.050000 4.029614 -0.029826 
